vals,w,v,tau,hat_w,hat_v,hat_tau
10.000000000000002,0.00908611463470963,0.01640218175372683,0.0002245999488320163,0.7648553300626262,1.3717554713101152,1.890648255938986
9.701933262266492,0.010511833679853167,0.017900660239930862,0.0002597610298882781,0.7651130382470802,1.3713251962125477,1.890693447958676
9.412750902547295,0.012087063621323215,0.019454550714551582,0.00029858346358503933,0.7653985427225998,1.370853051271965,1.8907433175673265
9.132188107085252,0.013818103899417707,0.021059038901822657,0.0003412145357138856,0.76571310048607,1.3703377429222314,1.89079805532532
8.859987955340486,0.0157107190470474,0.02270900912485591,0.00038778709838695354,0.7660578760076275,1.36977817476836,1.8908578258505395
8.595901184719835,0.01777011349842298,0.024399110977087614,0.0004384188978302197,0.7664339393684119,1.3691734580529147,1.8909227718343848
8.33968596231893,0.020000914905118926,0.02612382480549596,0.000493212128302088,0.7668422646155986,1.3685229185238783,1.8909930215621018
8.091107663467895,0.022407166541153423,0.027877525822567112,0.0005522532193861808,0.7672837267213888,1.3678260926676291,1.891068677113852
7.84993865687785,0.02499232650006666,0.029654544634362352,0.000615612809998165,0.7677591026653359,1.367082729645376,1.8911498220178873
7.615958096191474,0.027759274066157035,0.031449224364721036,0.0006833459105628425,0.7682690720679533,1.3662927866514623,1.8912365180562931
7.388951717746785,0.030710321375496653,0.033255973065269194,0.0007554922135146969,0.7688142202227548,1.365456426907974,1.8913288125969374
7.168711644368867,0.03384723092969738,0.035069311897202506,0.0008320765542670799,0.7693950397134859,1.3645740092337821,1.891426729502796
6.95503619500994,0.03717123628660279,0.03688391768079534,0.0009131094693169326,0.7700119349023349,1.3636460833059256,1.8915302764830608
6.747729700063433,0.04068306639090408,0.038694660506989074,0.0009985878520927909,0.7706652258445205,1.3626733806394569,1.891639444587703
6.546602322182891,0.044382972356432,0.04049663612366282,0.0010884956792457285,0.7713551526146263,1.3616568048904112,1.8917542078740586
6.351469882441723,0.04827075536723706,0.04228519293037478,0.0011828047807734027,0.772081880735698,1.3605974247983905,1.8918745304848388
6.162153691674519,0.052345796703039314,0.044055954522478846,0.0012814756669174727,0.7728455050355028,1.359496460644495,1.892000359329262
5.978480386845528,0.05660708713060121,0.04580483702291066,0.001384458376207457,0.7736460552248121,1.3583552766273603,1.8921316310331582
5.800281772294445,0.061053256743168756,0.047528062246452236,0.0014916933886299898,0.7744835005986619,1.3571753702478255,1.8922682719588821
5.627394665714152,0.06568260419027772,0.04922216674533637,0.0016031126579952879,0.7753577548100139,1.355958362421862,1.8924101997501799
5.459660748719315,0.07049312516875504,0.050884007207851766,0.0017186409162531415,0.7762686804228346,1.354705987364527,1.892557323964204
5.2969264218690695,0.07548253907717775,0.05251076238560182,0.0018381975442122596,0.777216093949348,1.3534200856349692,1.8927095536008518
5.139042664010976,0.08064831552940761,0.05409993264907414,0.0019616996002112504,0.7781997698084466,1.3521025927969983,1.892866793858002
4.9858648958174685,0.08598769795366731,0.05564933693505258,0.002089066948663365,0.7792194456635742,1.3507555345801137,1.893028957649953
4.837252847389834,0.09149772595388887,0.0571571084278537,0.002220231080251671,0.7802748278437703,1.3493810215710875,1.8931959758348997
4.693070429808473,0.09717525548293234,0.05862168971202019,0.002355149970779158,0.7813655980942844,1.347981247601132,1.8933678163073084
4.553185610511813,0.103016976711345,0.06004182877545671,0.0024938323001713657,0.7824914223573711,1.3465584928632885,1.8935445150102725
4.417470292389771,0.10901942931201991,0.061416577701496666,0.0026363754083242284,0.7836519626433548,1.3451151337799323,1.893726224457378
4.28580019648104,0.1151790148334089,0.06274529653553501,0.002783022370413983,0.784846893275986,1.3436536621009756,1.8939132866503758
4.158054748166767,0.12149200579628959,0.06402766559173344,0.0029342443247430726,0.7860759229443351,1.3421767160626434,1.8941063382612136
4.034116966756427,0.12795455132156394,0.06526371036128546,0.0030908544395353912,0.7873388239911612,1.3406871261506172,1.8943064552831856
3.9138733583647793,0.1345626778918098,0.06645384385314067,0.003254159401570165,0.7886354703142125,1.339187980714999,1.8945153509461923
3.7972138119817904,0.14131228767161264,0.06759893255638208,0.0034261529085684167,0.7899658844450776,1.3376827073657194,1.8947356175203889
3.6840314986403864,0.14819915089143973,0.06870039168546468,0.0036097531069263973,0.7913302944303073,1.3361751794775238,1.8949710351580054
3.5742227735896637,0.15521889513957926,0.06976031639679922,0.003809082468167902,0.7927291994769027,1.334669841131967,1.8952269310522887
3.4676870813839953,0.16236699116509376,0.07078165442207272,0.0040297842226494724,0.7941634427392699,1.3331718505651031,1.8955105879698286
3.3643268638011197,0.1696387363855527,0.07176842426239685,0.004279364642100039,0.7956342882886529,1.331687237144934,1.8958316880252584
3.2640474705048783,0.1770292375365274,0.07272598050367642,0.004567545600651087,0.7971434981967986,1.3302230651057436,1.8962027723404713
3.1667570723708085,0.18453339426971904,0.07366132405186031,0.004906607527298955,0.7986934046985599,1.328787595249359,1.8966396915926294
3.0723665773952002,0.19214588578246655,0.07458345002816945,0.005311699687492864,0.8002869717439453,1.327390434250487,1.8971620181543185
2.9807895491106353,0.19986116269387533,0.07550371972509134,0.0058010932555324635,0.8019278400439414,1.3260426603192554,1.8977933882758784
2.89194212743328,0.2076734463338678,0.0764362355896693,0.006396353301548353,0.8036203500630148,1.3247569139837205,1.8985617431350652
2.8057429518694663,0.2155767373614536,0.07739819011063596,0.007122408858609278,0.8053695383748978,1.3235474437936339,1.8994994409443267
2.722113087011215,0.2235648351817188,0.07841015153657664,0.00800750563441015,0.8071811043700663,1.3224300988465494,1.900643218707513
2.640975950252502,0.2316313690168497,0.07949624279270182,0.009083033360170866,0.8090613463946004,1.3214222631060137,1.9020339913320101
2.56225724166006,0.2397698410354583,0.08068416656460287,0.010383228608041938,0.8110170690394019,1.3205427301722161,1.9037164863444134
2.4858848759344934,0.24797367923465308,0.08200503115976521,0.011944763144829658,0.8130554643843646,1.319811522204175,1.9057387284744916
2.4117889163994066,0.2562363027338703,0.08349294160064544,0.013806236985292248,0.8151839764588902,1.3192496582255417,1.9081513880685284
2.3399015109581063,0.2645511920103203,0.08518433771309145,0.016007602118382723,0.8174101530354265,1.3188788851068316,1.9110070373045687
2.270156829959207,0.2729119653918326,0.08711708908302754,0.018589548184257818,0.8197414964381751,1.3187213826393513,1.9143593451462757
2.2024910059142684,0.2813124571637466,0.08932938978411857,0.021592883052498672,0.8221853209576824,1.3187994583514002,1.9182622574550285
2.1368420750122423,0.2897467942545297,0.0918585304342815,0.025057940206137226,0.8247486246440012,1.319135246874493,1.9227692039975341
2.0731499203771824,0.2982094681912598,0.09473965274774973,0.02902404094170692,0.8274379812037527,1.3197504276505203,1.9279323702890283
2.011356217017251,0.30669539956682873,0.09800460464380134,0.033529033461275344,0.8302594558075552,1.3206659727259087,1.9338020646856988
1.951404378414617,0.31519999049449,0.10168100634674833,0.0386089234098624,0.8332185439777504,1.3219019326171955,1.9404262031212989
1.8932395047073238,0.3237191678841849,0.10579161169936471,0.04429760382245826,0.8363201378135616,1.323477267566823,1.94784992020673
1.8368083324156919,0.33224941033750743,0.1103540053149827,0.05062668395888422,0.8395685109950495,1.3254097242918985,1.956115312491035
1.7820591856672048,0.3407877631705358,0.11538063184487024,0.057625412075640696,0.8429673244461476,1.3277157592058233,1.9652613049359369
1.7289419288752192,0.3493318408854908,0.12087911246082761,0.06532068199792149,0.8465196479760067,1.3304105047627908,1.9753236297035506
1.6774079208281676,0.357879816908088,0.12685277675993675,0.07373711027668561,0.8502279925672224,1.33350777240961,1.9863349001367636
1.6274099701472073,0.36643040725422904,0.13330132956240695,0.08289717075482665,0.8540943559995067,1.337020090172869,1.9983247629292658
1.578902292071531,0.3749828439376036,0.14022157329153173,0.09282137085702452,0.8581202713402108,1.3409587630101738,2.011320108158517
1.5318404665317589,0.38353684505767593,0.14760812318317076,0.10352845713274536,0.8623068616734676,1.345333953624587,2.0253453208886105
1.486181397473029,0.3920925796407649,0.1554540683797626,0.1150356370351494,0.8666548939928633,1.3501547738321928,2.0404225562768294
1.4418832733905278,0.4006506337940078,0.16375155279963996,0.12735880813831885,0.8711648369785312,1.3554293873139611,2.0565720295048564
1.398905529041325,0.4092119732519193,0.17249226142294397,0.14051278477908125,0.8758369128796895,1.3611651119476846,2.0738123040542353
1.3572088082974532,0.41777790816469,0.1816678126237692,0.15451151724802387,0.8806711488547487,1.3673685243564393,2.0921605749251118
1.3167549281062128,0.42635005697512374,0.19127006158875481,0.169368297725076,0.8856674215608299,1.374045558644217,2.111632935817171
1.2775068435246986,0.4349303152844521,0.20129132748431763,0.18509595198391185,0.8908255022388678,1.3812016058365488,2.1322446349151036
1.239428613796535,0.44352082377667806,0.2117245540183256,0.20170701288350973,0.8961450930320203,1.3888416029215602,2.154010306868787
1.202485369439745,0.4521239381462938,0.2225634164120217,0.2192138757977844,0.9016258582354972,1.3969701141957838,2.1769441827785405
1.166643280315627,0.4607422043508161,0.23380238744859783,0.23762893765523507,0.9072674556258971,1.405591410735896,2.20106028581988
1.1318695246493875,0.4693783332281308,0.24543676952145593,0.2569647176115847,0.9130695590204148,1.4147095368722509,2.2263726001790127
1.0981322589741653,0.4780351769928718,0.25746270174589714,0.27723396129496214,0.9190318760528271,1.4243283676926106,2.252895218230881
1.0654005889709293,0.4867157114551694,0.26987715083959973,0.2984497321693761,0.9251541679141988,1.4344516664920315,2.2806424789076964
1.0336445411775372,0.49542301485359863,0.2826778863539617,0.3206254866524031,0.9314362571457484,1.445083124039253,2.309629074507698
1.0028350355410531,0.5041602538329126,0.29586344999818864,0.34377514039928125,0.9378780410219122,1.4562264030168177,2.339870157755283
0.9729438587881941,0.5129306656190533,0.30943311643784543,0.36791312113252617,0.9444794935064194,1.4678851652171205,2.3713814195876135
0.9439436385895095,0.521737546797401,0.32338685394725925,0.3930544159823552,0.9512406735163843,1.480063106161726,2.404179172594791
0.915807818493642,0.5305842381027244,0.3377252808330736,0.41921460823051243,0.9581617226522295,1.4927639742863203,2.4382804083263574
0.8885106336087182,0.5394741155697367,0.3524496252687837,0.4464099119161975,0.9652428702849493,1.5059916003227165,2.4737028661731966
0.8620270870085897,0.5484105774653911,0.36756168328249705,0.47465719831464637,0.9724844287209249,1.519749912568447,2.5104650783711655
0.8363329268423325,0.5573970376741707,0.3830637823739005,0.5039740234311597,0.9798867970059211,1.5340429650802556,2.5485864324051457
0.8114046241260316,0.5664369149512551,0.3989587446172489,0.5343786495103258,0.9874504556269454,1.5488749529242756,2.588087211604871
0.7872193511965184,0.5755336268787569,0.4152498552833257,0.5658900684203864,0.9951759675164855,1.5642502369827165,2.6289886492110304
0.7637549608073347,0.5846905847525228,0.4319408348057748,0.5985280249430136,1.0030639791126397,1.5801733690016084,2.671312982444173
0.7409899658477723,0.5939111867195833,0.44903581213514093,0.6323130377521201,1.0111152167995865,1.5966491091776183,2.7150834938297916
0.7189035196664213,0.6031988155519501,0.46653930380566555,0.6672664244265344,1.0193304899661644,1.6136824528815596,2.7603245677650765
0.6974753969812104,0.6125568359158897,0.48445619493650594,0.7034103260237764,1.0277106916911454,1.6312786523138731,2.8070617395170476
0.6766859753584532,0.6219885932330479,0.5027917233046214,0.7407677332184711,1.0362568007056825,1.6494432380446253,2.85532174526516
0.6565162172439419,0.6314974134441509,0.5215514656295183,0.7793625132776978,1.0449698834032701,1.6681820379948142,2.9051325695041337
0.6369476525296373,0.6410866052884128,0.5407413269342192,0.8192194397352182,1.0538510987885932,1.687501197964227,2.9565234977689405
0.617962361639985,0.6507594607142823,0.5603675292237607,0.8603642194067677,1.0629016985709263,1.707407191053754,3.0095251522142537
0.5995429591223723,0.6605192592792435,0.5804366036493859,0.9028235236305657,1.0721230329574571,1.727906832459008,3.064169540183373
0.5816725777267022,0.6703692704801061,0.6009553811552597,0.9466250162372162,1.0815165514470477,1.7490072826867535,3.120490085053647
0.5643348529594985,0.6803127595202981,0.6219309857774393,0.991797385372071,1.0910838086807917,1.770716055396329,3.178521669544379
0.5475139080984027,0.6903529908429598,0.6433708259256307,1.038370371763896,1.1008264653948092,1.7930410143159248,3.2383006622824606
0.5311943396533411,0.7004932332249442,0.665282586682349,1.086374798706164,1.1107462915348392,1.8159903710339618,3.2998649496173798
0.5153612032610435,0.7107367647445926,0.6876742218386048,1.1358426018570478,1.1208451687551229,1.839572679848729,3.3632539653145734
0.5,0.7210868780324781,0.7105539461571071,1.186806859897886,1.1311250932700538,1.863796831911996,3.4285087221448873
