vals,w,v,tau,hat_w,hat_v,hat_tau
10.000000000000002,0.016972318479795936,0.0150865241940751,8.518930408742638e-05,0.7564240974606722,1.9404925060077436,3.7967259849174884
9.701933262266492,0.0185215700051558,0.015795904131265057,9.29254592841428e-05,0.7567537846729975,1.9398204047280103,3.7967457970343057
9.412750902547295,0.020155382425531287,0.01650308622566032,0.00010107652062829131,0.7571024755821798,1.9391139791651115,3.7967666625483063
9.132188107085252,0.021874714944902753,0.01720653962746915,0.00010964608237046935,0.7574704561060259,1.9383731097749743,3.79678858964448
8.859987955340486,0.023680443452108936,0.017904817264822792,0.00011863724117272336,0.7578579968630104,1.9375977329246397,3.7968115850435993
8.595901184719835,0.025573369493647045,0.01859655921472692,0.0001280526407729138,0.7582653540750031,1.9367878350863497,3.7968356542984045
8.33968596231893,0.027554228945723853,0.019280494965622102,0.00013789451506825357,0.7586927715450704,1.935943450252076,3.796860803486823
8.091107663467895,0.029623700558525312,0.019955444764218157,0.0001481647298560221,0.75914048233588,1.9350646547276993,3.796887033192422
7.84993865687785,0.03178241329250456,0.020620319817552083,0.0001588648198644399,0.7596087106997763,1.934151567596413,3.7969143476030496
7.615958096191474,0.03403095372126324,0.021274121932614697,0.00016999602473693183,0.7600976736099678,1.9332043462958182,3.796942748761893
7.388951717746785,0.03636987247552101,0.021915942356633883,0.00018155932082530607,0.7606075822724521,1.9322231849282734,3.7969722380926725
7.168711644368867,0.03879969009635658,0.022544960063647652,0.0001935554498431692,0.7611386434904628,1.9312083123926644,3.7970028164874616
6.95503619500994,0.04132090222267301,0.023160439562863344,0.0002059849441330838,0.7616910608922658,1.9301599908036138,3.7970344843867307
6.747729700063433,0.04393398411315008,0.02376172831967415,0.0002188481485525358,0.7622650360207719,1.9290785141938405,3.7970672418513525
6.546602322182891,0.04663939449545013,0.024348253869882965,0.00023214523900276764,0.7628607697415848,1.9279642090877471,3.7971010904331433
6.351469882441723,0.04943757885873017,0.024919520714544924,0.0002458762378738714,0.7634784612758767,1.9268174274905014,3.797136026120353
6.162153691674519,0.05232897195789226,0.025475107026476915,0.0002600410260589798,0.7641183114955785,1.9256385555608597,3.7971720498838524
5.978480386845528,0.05531399989937467,0.026014661275616927,0.00027463935233733007,0.7647805217784571,1.9244280073477573,3.797209160833643
5.800281772294445,0.05839308157673218,0.02653789878461922,0.00028967083978729364,0.7654652948546186,1.9231862262018868,3.797247357949069
5.627394665714152,0.06156662959382181,0.027044598274119567,0.0003051349896181537,0.7661728351203505,1.921913684922663,3.797286640108963
5.459660748719315,0.06483505069096199,0.027534598431143382,0.0003210311825732881,0.7669033488400105,1.9206108860880673,3.7973270061165865
5.2969264218690695,0.06819874570805162,0.028007794531012584,0.00033735867809986386,0.7676570442420605,1.9192783625489305,3.797368454719356
5.139042664010976,0.07165810911878019,0.028464135137088623,0.00035411661148327316,0.7684341315152956,1.9179166780687347,3.797410984624274
4.9858648958174685,0.07521352816977105,0.02890361889824778,0.00037130398916221326,0.7692348227115018,1.9165264280906682,3.797454594509465
4.837252847389834,0.07886538165789231,0.02932629145872183,0.0003889196824956935,0.7700593315604951,1.9151082406133548,3.7974992830324013
4.693070429808473,0.0826140383780186,0.02973224249167098,0.00040696242048205176,0.7709078732034728,1.913662777157378,3.7975450488361346
4.553185610511813,0.08645985527246405,0.030121602863847786,0.00042543078268724924,0.7717806638506542,1.9121907338057,3.7975918905567494
4.417470292389771,0.09040317531198601,0.030494541936520795,0.0004443231959604552,0.7726779203694509,1.910692842302777,3.7976398068409236
4.28580019648104,0.09444432521004995,0.030851265018659924,0.0004636379451128149,0.7735998606154092,1.9091698736233145,3.797688798456031
4.158054748166767,0.0985836125604703,0.031192010899962548,0.00048337322270515585,0.7745466997099073,1.90762262954658,3.797738860277173
4.034116966756427,0.10282132350336165,0.03151704966501926,0.0005035272845818995,0.7755186542527333,1.9060519582570017,3.7977899938689683
3.9138733583647793,0.10715771950911937,0.03182668056324618,0.0005240988520691709,0.7765159386264566,1.9044587462833733,3.797842200493905
3.7972138119817904,0.11159303435246659,0.032121230192675466,0.0005450880668080645,0.7775387653293323,1.9028439226032736,3.797895485565202
3.6840314986403864,0.11612747085161135,0.032401051078360686,0.0005664985899847025,0.7785873447692875,1.9012084610921516,3.7979498640180434
3.5742227735896637,0.12076119741292429,0.03266652098240073,0.0005883419273462718,0.7796618855725714,1.8995533843472292,3.7980053713458934
3.4676870813839953,0.1254943443129733,0.03291804357502792,0.0006106458238277806,0.7807625958625651,1.897879770052166,3.7980620849979525
3.3643268638011197,0.13032699959174143,0.03315605161394144,0.0006334696720493948,0.781889686226326,1.8961887617506012,3.798120163637137
3.2640474705048783,0.1352592043507419,0.033381014602440175,0.0006569313403774669,0.7830433754283941,1.8944815868295484,3.7981799154906764
3.1667570723708085,0.14029094714792595,0.033593454129901536,0.0006812515972175357,0.7842239003350039,1.8927595856435278,3.798241911554106
3.0723665773952002,0.1454221570632192,0.03379397183252572,0.0007068242317036444,0.7854315319331189,1.8910242569390228,3.798307164348752
2.9807895491106353,0.1506526948867842,0.0339832972025697,0.0007343217683740738,0.7866665996946471,1.8892773258920448,3.7983773975791593
2.89194212743328,0.1559823417764903,0.034162365298887463,0.0007648479540482101,0.7879295267482582,1.8875208419034546,3.798455435405899
2.8057429518694663,0.16141078466754777,0.034332437631376916,0.000800148496657277,0.7892208782676763,1.8857573135169259,3.7985457409732146
2.722113087011215,0.1669375977252326,0.034495282800925675,0.0008428903937705859,0.7905414250599853,1.8839898871400724,3.7986551311201917
2.640975950252502,0.17256221923941376,0.034653436349744826,0.0008970172242081619,0.7918922234615448,1.8822225744167422,3.798793686881372
2.56225724166006,0.1782839235899346,0.034810560898159155,0.0009681827867567302,0.7932747112948793,1.880460529979348,3.798975866887368
2.4858848759344934,0.1841017882776275,0.03497192681920594,0.001064258505803659,0.7946908178502177,1.8787103769180273,3.7992218131714894
2.4117889163994066,0.19001465651717883,0.03514502874285211,0.0011959014376877837,0.7961430837579921,1.8769805718375063,3.7995588169749137
2.3399015109581063,0.1960210965129732,0.03534034181427679,0.0013771601755249402,0.7976347844323739,1.8752817952324965,3.800022887516527
2.270156829959207,0.20211935924039953,0.03557220104509967,0.0016260864364910155,0.7991700491225673,1.8736273480545456,3.8006603431029062
2.2024910059142684,0.20830733747912228,0.03585975431743644,0.001965311798202463,0.8007539639193958,1.872033520291683,3.8015293118133604
2.1368420750122423,0.2145825293510028,0.03622789334694168,0.0024225433853804273,0.8023926538197903,1.8705199223748912,3.802701041983781
2.0731499203771824,0.2209420107553278,0.03670800887933503,0.0030309303313579795,0.8040933277324898,1.869109720303777,3.8042608669693623
2.011356217017251,0.2273824214289933,0.03733835873064099,0.0038292560394765814,0.8058642850430808,1.8678297661395522,3.8063087232803277
1.951404378414617,0.23389996959965215,0.03816380256393325,0.00486191986452013,0.8077148781123153,1.8667105913013247,3.8089591121005597
1.8932395047073238,0.24049045940443062,0.03923468240039774,0.006178685968211543,0.8096554311117856,1.8657862490891612,3.8123404401367456
1.8368083324156919,0.24714934463978785,0.04060474799456049,0.007834195656689514,0.8116971180115633,1.8650939980618206,3.816593715597544
1.7820591856672048,0.25387180594375597,0.04232824776505658,0.009887260456463579,0.813851802566362,1.8646738415907944,3.8218706514781102
1.7289419288752192,0.2606528494258374,0.04445657484637048,0.012399973777616927,0.8161318424940158,1.86456792868867,3.8283312524711732
1.6774079208281676,0.26748741774165524,0.04703505954270336,0.015436696406237155,0.8185498613145155,1.8648198523013013,3.836141040473061
1.6274099701472073,0.2743705001495323,0.050100514764397044,0.019062981774263445,0.8211184884745346,1.8654738800251793,3.8454681025213944
1.578902292071531,0.2812972374236274,0.05367993874741032,0.02334451153773283,0.8238500835479646,1.8665741598120635,3.8564801402928777
1.5318404665317589,0.2882630075843047,0.05779044578270026,0.028346106499453957,0.8267564543085686,1.8681639510326065,3.869341723767291
1.486181397473029,0.2952634967832837,0.06244019387587101,0.034130869354445655,0.8298485993812975,1.8702849320403625,3.8842118964009815
1.4418832733905278,0.30229474797507183,0.06762991560420992,0.04075949792671271,0.8331364879134322,1.872976619782077,3.901242259879551
1.398905529041325,0.3093531957316425,0.07335466272896676,0.048289792996006345,0.8366289014442291,1.8762759362957813,3.920575602979401
1.3572088082974532,0.31643568656884036,0.07960547584705435,0.05677636565129663,0.840333342425628,1.8802169320508724,3.942345098691129
1.3167549281062128,0.32353948658579684,0.08637081904949036,0.06627053382028245,0.8442560073932412,1.884830657987382,3.966674039290247
1.2775068435246986,0.3306622836620233,0.09363772720817738,0.07682038874206464,0.8484018253238481,1.8901451789107648,3.9936760490099124
1.239428613796535,0.3378021831210206,0.10139267778180644,0.0884710039651725,0.8527745510540752,1.896185719468559,4.023455718000748
1.202485369439745,0.34495769297564255,0.10962222155467766,0.10126474737426301,0.8573768791469542,1.9029748560543007,4.056109495361338
1.166643280315627,0.3521277118838129,0.1183134305323919,0.1152416741500771,0.8622105959187716,1.9105327972141883,4.091726816114692
1.1318695246493875,0.35931151252379934,0.1274542021299841,0.13043996489772647,0.8672767374952356,1.91887768401866,4.130391335922184
1.0981322589741653,0.3665087233471779,0.13703345762398558,0.14689638464853924,0.8725757483424746,1.9280258976923006,4.1721822065492695
1.0654005889709293,0.3737193107206762,0.1470412639865908,0.16464674319003536,0.8781076348596968,1.9379923615808612,4.217175336622752
1.0336445411775372,0.3809435581260176,0.15746889760320587,0.1837263379933759,0.883872101872967,1.948790814667026,4.2654445859065255
1.0028350355410531,0.3881820487132975,0.16830886924139501,0.20417037375854574,0.8898686793564006,1.960434067271757,4.317062880208094
0.9729438587881941,0.39543564566839706,0.17955491778842853,0.22601434703646475,0.8960968276308268,1.9729342187871475,4.372103217583464
0.9439436385895095,0.40270547265295425,0.1912019823007034,0.24929439382904492,0.902556024402744,1.986302842384346,4.430639563715181
0.915807818493642,0.4099928969176005,0.20324616077187072,0.2740476022628036,0.9092458393333915,2.0005511475968314,4.492747648657435
0.8885106336087182,0.4172995103449058,0.21568465646169238,0.3003122861802263,0.9161659882740681,2.0156901063244206,4.55850565334952
0.8620270870085897,0.4246271106616531,0.2285157168215216,0.3281282237303048,0.9233163728293678,2.0317305520638556,4.6279948006749665
0.8363329268423325,0.4319776850955729,0.24173856984722925,0.3575368670400604,0.9306971116222849,2.0486832646708315,4.701299872730689
0.8114046241260316,0.43935339168871285,0.25535335544018106,0.38858152007433583,0.9383085554624155,2.0665590248244863,4.7785096425376805
0.7872193511965184,0.44675654226527334,0.26936105678038585,0.42130749304527276,0.9461512960457239,2.085368656267173,4.85971724843291
0.7637549608073347,0.45418958413527993,0.2837634298719017,0.455762232477636,0.9542261638349361,2.105123046274692,4.945020505774254
0.7409899658477723,0.46165508467256494,0.2985629362094232,0.49199543627566805,0.9625342251168438,2.1258331641815102,5.034522188177844
0.7189035196664213,0.4691557139282218,0.3137626740187477,0.5300591491546869,0.9710767694887652,2.147510059115291,5.12833025908835
0.6974753969812104,0.4766942293938812,0.32936631265742067,0.57000784738075,0.9798552974186487,2.170164856342685,5.226558084639683
0.6766859753584532,0.48427346013965655,0.3453780273113551,0.6118985104855984,0.9888715029624524,2.193808741235216,5.329324617106133
0.6565162172439419,0.49189629434848064,0.36180243881156904,0.6557906894276351,0.998127261014447,2.218452950887449,5.436754582027925
0.6369476525296373,0.4995656655331185,0.37864455313925977,0.7017465645207069,1.0076246095831296,2.2441087523323686,5.548978641890903
0.617962361639985,0.5072845413104806,0.3959097052437645,0.7498310020592329,1.017365735875988,2.270787426425143,5.666133567274855
0.5995429591223723,0.5150559119198783,0.41360350373147564,0.8001116056546003,1.0273529604248406,2.2985002444042233,5.788362398324039
0.5816725777267022,0.5228827822197739,0.43173178134049467,0.8526587717499553,1.0375887277740636,2.327258456659464,5.915814629667656
0.5643348529594985,0.5307681625009484,0.45030054512874523,0.9075457406300833,1.0480755936586486,2.357073270710124,6.048646384492367
0.5475139080984027,0.5387150617683004,0.4693159312105694,0.9648486520524648,1.0588162169439423,2.387955837569761,6.18702061012681
0.5311943396533411,0.5467264807072365,0.48878416024547466,1.024646600180047,1.0698133502612943,2.419917232516882,6.3311072738773095
0.5153612032610435,0.5548054079581889,0.5087114989739703,1.087021697907632,1.0810698376919425,2.4529684505460416,6.481083595228718
0.5,0.5629548151146031,0.5291042212369809,1.1520591401958435,1.0925886091893457,2.48712039213613,6.637134274231535
