vals,w,v,tau,hat_w,hat_v,hat_tau,rs_loo_hc
10.000000000000002,0.0003634836504189695,0.005850406381413863,9.123209307264141e-06,0.7591823126455695,1.9516849955138544,3.8109989884592377,0.5222237540089779
9.770099572992253,0.0004896495064691155,0.006906804008777465,1.2289534154851592e-05,0.7592060507385159,1.9516412840264832,3.8110070992894314,0.5242255849933822
9.545484566618343,0.0006513304206465994,0.008100269652050199,1.6346894777903883e-05,0.7592364342601299,1.9515852922043604,3.81101749360182,0.5264182074456691
9.3260334688322,0.0008560227237557136,0.00943995169047348,2.1483187091764543e-05,0.7592748726741654,1.951514560751145,3.811030652851212,0.5287689643541074
9.111627561154894,0.0011121877072789268,0.010934492475215394,2.7910388840691195e-05,0.7593229467433722,1.9514263320687524,3.811047118947645,0.53128377343223
8.90215085445039,0.0014292558782689347,0.0125918914064907,3.586460833847864e-05,0.7593824187027807,1.9513175861418177,3.811067495655067,0.5339412651589379
8.697490026177835,0.0018176110313823034,0.014419372984376776,4.560560860078877e-05,0.7594552366464821,1.9511850786268305,3.811092449740781,0.5367886716552281
8.497534359086444,0.002288552677712064,0.01642325822921195,5.7415769172569324e-05,0.7595435154581651,1.9510253369089896,3.8111227034075807,0.539716734395266
8.302175681319746,0.0028542381306745747,0.018608848734518808,7.159851312761547e-05,0.7596495325522616,1.9508347102422612,3.8111590332328094,0.5427975618143545
8.111308307896874,0.0035276049108756906,0.020980323335105733,8.847621363492363e-05,0.7597757200653568,1.9506094250888244,3.8112022650933337,0.5460540576556265
7.924828983539174,0.004322273205770788,0.023540643079790737,0.00010838757612174618,0.7599246348395672,1.950345599941703,3.8112532661581833,0.5494279214820253
7.742636826811271,0.005252433470152545,0.026291478575760856,0.00013168461531066244,0.7600989510287081,1.95003932555308,3.811312937285609,0.5529364680850065
7.564633275546291,0.006332717842663752,0.029233146948690707,0.00015872920366520875,0.7603014278199385,1.949686694751514,3.811382205420626,0.5565258901063103
7.39072203352578,0.0075780609803566485,0.03236457038611824,0.00018988932624383622,0.760534888959304,1.9492838663534369,3.8114620145539995,0.5601977217679606
7.220809018385465,0.009003552263808673,0.035683252732624134,0.00022553509608562412,0.7608021986653777,1.9488271225275433,3.8115533118353477,0.5640283454094901
7.054802310718644,0.01062428036849773,0.03918526989428374,0.00026603456603255655,0.7611062291492344,1.9483129111663455,3.8116570442125655,0.5679170503134968
6.892612104349699,0.012455176894570227,0.0428652838181986,0.0003117494995356603,0.7614498374467347,1.947737903896243,3.8117741393571123,0.5718259192784442
6.734150657750822,0.014510857625371036,0.04671656889735232,0.0003630310855514797,0.7618358351035949,1.9470990398896952,3.8119055047935335,0.5758444851183765
6.579332246575682,0.016805467865504155,0.05073105908521793,0.0004202157556966745,0.7622669620342857,1.9463935679237714,3.812052007622917,0.5798672152752423
6.428073117284323,0.019352531253788417,0.05489940797696231,0.0004836211088523519,0.7627458601528729,1.9456190871829808,3.812214473785318,0.5839274242845002
6.280291441834254,0.022164806498495702,0.05921106526513651,0.0005535420570802261,0.7632750482073645,1.944773578243888,3.8123936739676,0.5880145917665327
6.135907273413174,0.02525415282147161,0.0636543657965151,0.0006302472276433375,0.7638568988554039,1.9438554325971371,3.81259031849004,0.5921555666068254
5.994842503189412,0.028631406358718622,0.06821663057669267,0.0007139756853461949,0.7644936150120829,1.9428634669060596,3.8128050418973087,0.5962848156073364
5.857020818056667,0.0323062687803617,0.07288427801948127,0.0008049340186646349,0.7651872131561459,1.9417969487028115,3.813038407758845,0.6004106674019255
5.722367659350217,0.036287209711776715,0.07764294392131661,0.0009032938350402803,0.7659395049587134,1.9406556019652705,3.8132908979759335,0.6045243550075813
5.590810182512224,0.04058138317731645,0.08247760745956012,0.0010091896817003535,0.7667520798795197,1.9394396037498067,3.813562902308303,0.6086332207725785
5.462277217684343,0.04519456023204071,0.08737272366726237,0.001122717446928196,0.7676262968688863,1.9381495956134658,3.8138547263811775,0.6127280593647498
5.33669923120631,0.05013107652029277,0.09231235774005181,0.0012439332189270924,0.7685632717335669,1.9367866688073705,3.814166582295848,0.616791117643487
5.214008287999686,0.05539379624347789,0.09728032144999864,0.0013728526370352743,0.7695638703645502,1.9353523549694507,3.8144985893565377,0.6208066150393656
5.09413801481638,0.06098409230781388,0.1022603094056436,0.0015094507289345166,0.770628704787707,1.933848613278128,3.814850776341615,0.6247333467322062
4.977023564332112,0.06690184107901524,0.10723603188047226,0.0016536621968125515,0.7717581270180169,1.9322778002041616,3.815223074004443,0.6286426540463038
4.862601580065355,0.0731454348386813,0.1121913468384847,0.00180538220978434,0.7729522345467308,1.9306426626288062,3.8156153297385567,0.6324674695615847
4.750810162102798,0.07971180667706561,0.11711038403637537,0.001964467582108456,0.7742108690451064,1.928946301881966,3.8160273023863236,0.6362511898439798
4.641588833612779,0.08659647041317423,0.12197766396546783,0.002130738378414572,0.7755336217325062,1.9271921483704084,3.816458668025202,0.639891022017621
4.534878508128582,0.09379357321111052,0.12677820873876053,0.002303979881887831,0.7769198399132178,1.9253839318761279,3.8169090244815043,0.6435106901303285
4.430621457583882,0.10129596021025673,0.13149764433090463,0.0024839448939710756,0.7783686361779137,1.923525652937434,3.8173778984556055,0.6470848795186412
4.328761281083059,0.10909524842651425,0.13612229181618934,0.002670356290215682,0.7798788954020348,1.9216215414673186,3.817864743262731,0.6505406050489532
4.229242874389499,0.11718191233485162,0.1406392505260926,0.0028629098619415063,0.7814492911850821,1.9196760388464056,3.8183689566269914,0.6539000033533734
4.132012400115338,0.1255453745565229,0.14503646760408712,0.0030612772888108227,0.783078295657385,1.9176937562116958,3.8188898793175863,0.6572077860452871
4.037017258596555,0.1341741040664364,0.14930279739143865,0.003265109271616104,0.7847641944118462,1.9156794449887737,3.819426803625028,0.660435460429896
3.9442060594376556,0.14305571883289395,0.1534280489475406,0.0034740387428781718,0.7865051015529276,1.9136379657468563,3.819978980040652,0.663573273238589
3.85352859371053,0.15217709159644943,0.1574030219899519,0.0036876841114608762,0.788298975680608,1.9115742592033407,3.8205456251620245,0.6666087315205694
3.7649358067924688,0.16152445758774045,0.16121953138756387,0.0039056524956085884,0.7901436351408466,1.9094933122342221,3.821125923416428,0.6695444653707481
3.678379771828634,0.1710835223481936,0.16487042087478884,0.004127542902666656,0.7920367762507506,1.9074001378296144,3.8217190409984654,0.6723924198034787
3.593813663804628,0.18083956863203823,0.16834956593205494,0.004352949309480818,0.7939759887636775,1.9052997436184862,3.8223241271382347,0.6751241021239578
3.5111917342151315,0.19077756115573044,0.17165186702577406,0.004581463617282328,0.7959587727823274,1.9031971084943042,3.8229403213652864,0.6777814842633776
3.430469286314919,0.20088224803309537,0.17477323369045275,0.004812678447155493,0.7979825551069658,1.901097159489447,3.823566759194051,0.6803326763210159
3.351602650938843,0.21113825795654093,0.17771056034245805,0.005046189754032395,0.8000447051867607,1.8990047502508993,3.824202577451846,0.6827814042646588
3.2745491628777286,0.22153019230103874,0.18046169472309248,0.005281599243737062,0.8021425505387072,1.8969246411127008,3.824846919227296,0.6851870644042302
3.199267137797384,0.23204271209310115,0.18302540016201635,0.005518516596630095,0.8042733919925849,1.8948614809479705,3.82549893828281,0.6874728360510636
3.1257158496882362,0.24266061552678356,0.18540131109106017,0.005756561451231301,0.8064345157949006,1.8928197896443537,3.826157804017262,0.6897218959565173
3.053855508833416,0.25336891587801347,0.18758988691789924,0.0059953653277985235,0.8086232102790087,1.8908039442593392,3.8268227041986886,0.6918597247649549
2.98364724028334,0.2641529038466965,0.18959235886087247,0.006234573326533222,0.8108367751673746,1.8888181644278306,3.827492850221182,0.6939219383448798
2.915053062825177,0.274998204231757,0.19141067486711927,0.006473845865161101,0.8130725305108589,1.8868664960937656,3.828167478511129,0.6958682085744169
2.8480358684358023,0.2858908416086902,0.1930474485718079,0.006712860860561439,0.8153278383308358,1.8849528094159993,3.8288458580028424,0.6977191378636597
2.7825594022071254,0.29681727023405946,0.19450589717340241,0.006951316050873698,0.817600100929351,1.8830807879913987,3.829527299041569,0.6995737931206825
2.718588242732941,0.30776441877201377,0.19578978665069754,0.007188932651493884,0.8198867738270503,1.8812539152571466,3.830211156470405,0.7013009983621097
2.656087782946687,0.31871972145994787,0.19690337585094678,0.007425460718368227,0.8221853748548451,1.8794754763365824,3.830896848143608,0.7029707798647857
2.595024211399736,0.32967114352744004,0.19785136224175973,0.007660687384471974,0.8244934925656638,1.8777485561380423,3.831583876714457,0.7045640694406453
2.5353644939701123,0.3406072006162916,0.1986388303954543,0.00789444946771293,0.8268087950252012,1.8760760429755468,3.8322718644479106,0.7060855793430622
2.4770763559917115,0.35151697273301397,0.19927120429675765,0.008126652455649464,0.8291290394598474,1.8744606379237352,3.8329606059228767,0.7075393643016799
2.420128264794382,0.3623901122486151,0.19975420449668346,0.00835729843460811,0.8314520826415613,1.8729048707429095,3.833650145242867,0.708941314473217
2.364489412645408,0.37321685271591465,0.20009381341301846,0.008586526233382194,0.8337758982105614,1.8714111307579473,3.834340891408244,0.7102615125281299
2.3101297000831598,0.3839880035287568,0.2002962462472109,0.00881466735803715,0.8360985886054622,1.8699817000753993,3.835033771601333,0.7115343688747585
2.25701971963392,0.39469495167275265,0.20036793561029853,0.009042322253279446,0.8384184103294197,1.8686188122536649,3.835730449411126,0.712729747008981
2.205130739903046,0.405329661153033,0.2003155294316037,0.009270461321477833,0.8407338050575511,1.8673247303584957,3.8364336152354355,0.7138816189899899
2.154434690031884,0.4158846618492053,0.2001459030153837,0.009500555145763777,0.8430434298830773,1.8661018376501601,3.8371473541342165,0.7150023681812908
2.104904144512021,0.42635305481596125,0.1998661952797177,0.009734738384562486,0.8453462101680267,1.8649527718115109,3.8378776262789556,0.7160619676660506
2.0565123083486516,0.436728503916918,0.1994838648785102,0.009976010140887103,0.847641388958416,1.8638805721986742,3.838632843847921,0.7170573490002229
2.0092330025650473,0.4470052426763466,0.19900677683850973,0.01022847281156148,0.8499285972291695,1.8628888716495882,3.8394245750155567,0.71798873135838
1.9630406500402713,0.45717808556512446,0.19844332005625204,0.01049760873877149,0.8522079344729601,1.861982120604801,3.840268365472492,0.7188930456564765
1.9179102616724886,0.4672424376829127,0.19780255704103059,0.010790591224113194,0.8544800524997377,1.8611658334645131,3.8411846621343644,0.7197302925344994
1.8738174228603843,0.4771943268926316,0.19709441289702959,0.01111662351485515,0.8567462604873586,1.8604468795283218,3.8421998443508487,0.7205330194168938
1.8307382802953682,0.48703043051794204,0.19632989738318685,0.011487294964369843,0.8590086237414718,1.8598337790548614,3.843347305241175,0.7213248971578121
1.788649529057435,0.49674812650549105,0.19552136452521135,0.01191694056426623,0.8612700777296629,1.8593370288407585,3.8446685723823424,0.7220504745896712
1.747528400007684,0.5063455388109308,0.1946827985125249,0.012422985663861793,0.8635345265247396,1.8589694094336093,3.846214384014046,0.7227470113902846
1.7073526474706908,0.5158216047027552,0.19383012353763426,0.013026255801280931,0.8658069444628707,1.8587462920796565,3.848045688400326,0.7234048638783442
1.668100537200059,0.525176132648583,0.19298151915191186,0.013751229057221752,0.8680934489786342,1.8586858922948528,3.8502344645454505,0.7239873203124666
1.6297508346206444,0.5344098699686441,0.19215772892679814,0.014626209382256271,0.8704013567021902,1.8588094770570622,3.8528643159720426,0.7245481880509095
1.5922827933410924,0.5435245647192662,0.1913823390024706,0.015683401050021296,0.8727392060185597,1.8591414924610725,3.856030756418045,0.7251039051868324
1.555676143930472,0.5525230094313786,0.19068200025793605,0.01695886881890459,0.8751167335792648,1.8597095845322529,3.859841120230453,0.7255842262688202
1.5199110829529336,0.5614090802937548,0.1900865701548366,0.018492375961294674,0.8775448167593252,1.8605445230037398,3.8644140805216725,0.7260351779577022
1.484968262254465,0.5701877419585961,0.18962914102264058,0.020327099424417,0.880035358849881,1.8616799892981977,3.8698787314108385,0.7264489795560541
1.45082877849594,0.5788650349730784,0.18934593199021454,0.022509232339433288,0.8826011367011519,1.8631522555349513,3.8763732762746193,0.7268144531605352
1.4174741629268053,0.5874480288807075,0.18927601971438857,0.025087492171651724,0.8852556033239058,1.864999745462935,3.8840433530594534,0.7271340096914652
1.3848863713938733,0.5959447501923028,0.18946089603323008,0.028112561893726,0.8880126623110107,1.8672625080187275,3.8930400880924187,0.7274360322563628
1.353047774579807,0.6043640747744417,0.18994384828329783,0.03163649590568749,0.8908864147088188,1.869981613195736,3.9035179654436853,0.7276920281604312
1.3219411484660295,0.6127156043347269,0.19076917856978087,0.035712126815972314,0.8938909052007642,1.8731985226163395,3.915632651576587,0.7278859976596569
1.291549665014884,0.6210095214137834,0.19198128982488213,0.040392506377751755,0.8970398714010519,1.8769544537176717,3.929538882343575,0.728018379103197
1.2618568830660204,0.62925643493905,0.1936236865387188,0.04573041067350108,0.9003465135786969,1.881289777401217,3.945388533140977,0.728117555598565
1.232846739442066,0.6374672232452421,0.19573795108809125,0.051777932403425014,0.9038232951804062,1.8862434774957724,3.963328966698506,0.7281663219415903
1.2045035402587825,0.6456528818601822,0.19836276542978973,0.05858617475018823,0.9074817821349644,1.8918526946959506,3.9835017272431275,0.728151308483176
1.1768119524349985,0.6538243831532471,0.20153304907830613,0.06620505265806166,0.9113325261322333,1.8981523707127184,4.006041620525825,0.7280838027139526
1.1497569953977358,0.6619925476777636,0.2052792746545726,0.07468319808182669,0.9153849883052547,1.9051749909924514,4.031076178175372,0.7279616128881684
1.1233240329780276,0.6701679427844134,0.20962701067193212,0.08406796271264635,0.9196475123830683,1.9129504432226967,4.058725508780894,0.7277868211642877
1.0974987654930561,0.6783607948939043,0.21459671126359112,0.09440550178501161,0.9241273291901326,1.92150596086105,4.089102468937268,0.7275449620203375
1.072267222010323,0.6865809230308582,0.22020375354810737,0.10574092411946136,0.9288305931983651,1.9308661505393085,4.122313112523246,0.7272479804706704
1.047615752789665,0.6948377016577665,0.226458701804171,0.118118494982344,0.9337624529431502,1.9410531044654493,4.158457378478094,0.7269001504195136
1.0235310218990263,0.7031400314228944,0.23336775009164262,0.13158187090869952,0.9389271306994293,1.952086551218859,4.197629918394945,0.7264978554863685
1.0,0.7114963412539684,0.24093330007746228,0.14617436108605003,0.9443280291558325,1.9639840737096388,4.239921064604001,0.7260339724975381
