vals,w,v,tau,hat_w,hat_v,hat_tau
10.000000000000002,0.009466782423436402,0.016809479430862844,0.00023200927399424673,0.7648041541538184,1.3657450186406797,1.8743607751340163
9.701933262266492,0.010932840796943953,0.018323022101984082,0.0002678552253760561,0.7650621803284596,1.365302891098134,1.8744067198525451
9.412750902547295,0.012550123320611345,0.019890617834186587,0.00030737203225944656,0.7653484488673614,1.3648179196382055,1.874457341030096
9.132188107085252,0.014324786256313378,0.02150736942866604,0.00035070195563885703,0.7656642658484156,1.3642888022499986,1.8745128220440552
8.859987955340486,0.016262446073508408,0.023168097559615117,0.00039797279262696874,0.7660108451821235,1.363714435799545,1.8745733185292623
8.595901184719835,0.018368156574892165,0.024867406724680213,0.00044929726756312533,0.766389307786452,1.3630939300020435,1.87463897213143
8.33968596231893,0.020646395410052126,0.02659975056731283,0.0005047726620992012,0.7668006766226421,1.362426605713905,1.8747098988347068
8.091107663467895,0.02310105792774217,0.028359494331575023,0.0005644806432544558,0.767245876002345,1.3617119985714343,1.874786196180886
7.84993865687785,0.025735458693380946,0.030140974456143957,0.00062848729086437,0.7677257305753488,1.360949855892294,1.8748679399700117
7.615958096191474,0.028552338901605596,0.03193855390612201,0.0006968432873236514,0.7682409669049142,1.3601401359612946,1.8749551913059672
7.388951717746785,0.03155388015964808,0.03374667358827578,0.0007695842709921272,0.7687922137568652,1.359282998713827,1.8750479875298085
7.168711644368867,0.03474172208800836,0.035559898372949796,0.0008467313022911278,0.7693800054826068,1.3583788018752028,1.8751463493193818
6.95503619500994,0.038116984093131356,0.03737295829768669,0.0009282914414965083,0.7700047849883157,1.357428092660411,1.8752502801023423
6.747729700063433,0.041680290128529376,0.03918078459148647,0.0010142584107510498,0.7706669072899486,1.3564315986241366,1.8753597656298555
6.546602322182891,0.04543179509721415,0.040978540278214126,0.0011046133121898538,0.7713666443761955,1.3553902210521893,1.8754747809775112
6.351469882441723,0.0493712137919593,0.0427616462401644,0.0011993254103979474,0.7721041885919799,1.3543050216715384,1.8755952831753242
6.162153691674519,0.05349784966017537,0.04452580192805562,0.0012983529359472767,0.7728796579563181,1.3531772152446275,1.8757212180850749
5.978480386845528,0.057810624361497816,0.04626700171985874,0.0014016439340075496,0.7736931007016001,1.3520081590455186,1.875852520340279
5.800281772294445,0.062308107041202154,0.04798154694158212,0.0015091371726528406,0.774544499997504,1.3507993429750045,1.8759891147329837
5.627394665714152,0.06698854314116376,0.04966605398806581,0.0016207631860296354,0.7754337785175871,1.3495523793103847,1.8761309164869608
5.459660748719315,0.07184988162115526,0.05131745867020109,0.0017364456061107292,0.7763608035547271,1.3482689955505194,1.876277838206054
5.2969264218690695,0.07688980223383722,0.05293301784977337,0.0018561031374147495,0.777325390919743,1.3469510224178938,1.8764297851407195
5.139042664010976,0.08210574009267971,0.05451030800621501,0.0019796527455133773,0.7783273101400237,1.3456003881255887,1.8765866643247708
4.9858648958174685,0.0874949091806097,0.05604722194750563,0.0021070151136007545,0.779366289389022,1.3442191114232709,1.8767483904855604
4.837252847389834,0.09305432386994723,0.05754196416583026,0.0022381239957832374,0.7804420212479524,1.3428092973764576,1.8769148980975419
4.693070429808473,0.09878081836080942,0.05899304588135229,0.0023729419093799506,0.7815541697611355,1.3413731365044879,1.8770861614803511
4.553185610511813,0.10467106379314192,0.06039928114848283,0.002511485572197697,0.7827023795949246,1.3399129088664454,1.8772622272758255
4.417470292389771,0.11072158274000228,0.06175978590942447,0.002653865531998504,0.7838862883478475,1.3384309951643374,1.8774432649702524
4.28580019648104,0.11692876090981187,0.06307398256578088,0.002800345403682895,0.785105543231372,1.3369298969378351,1.8776296413121862
4.158054748166767,0.12328885465944665,0.06434161320665195,0.002951426803070283,0.7863598237290504,1.3354122713675909,1.8778220327711728
4.034116966756427,0.1297979964384028,0.06556276613178279,0.0031079662614171806,0.7876488710233595,1.3338809769816404,1.8780215683190988
3.9138733583647793,0.13645219452519192,0.06673792008881707,0.0032713297509644303,0.7889725261709966,1.3323391418092432,1.8782300308326767
3.7972138119817904,0.14324732929010728,0.06786801242602539,0.0034435889646459526,0.7903307771545789,1.3307902494193113,1.878450106960392
3.6840314986403864,0.15017914501967533,0.06895453714648045,0.003627760885782697,0.791723815157267,1.329238246393501,1.8786856939727006
3.5742227735896637,0.15724323776406066,0.06999967901239845,0.0038280886367477738,0.7931520992300376,1.3276876701426488,1.8789422604292252
3.4676870813839953,0.16443503988543626,0.07100648909720497,0.00405035725437826,0.7946164275301819,1.32614379447429,1.8792272530867624
3.3643268638011197,0.17174980240781176,0.0719791055943592,0.004302233271269243,0.7961180122061366,1.3246127881597514,1.8795505364401575
3.2640474705048783,0.17918257669634627,0.07292302105603625,0.004593612263500926,0.7976585539483865,1.3231018795675684,1.8799248452482948
3.1667570723708085,0.18672819737547466,0.07384539340854328,0.0049369544173957685,0.7992403113505233,1.3216195184601665,1.8803662250345772
3.0723665773952002,0.1943812686752285,0.07475539299878109,0.005347585252298542,0.8008661596629054,1.3201755245424507,1.8808944315890772
2.9807895491106353,0.20213615652226558,0.07566457159960764,0.005843937444355761,0.8025396333945685,1.318781211541084,1.8815332586134348
2.89194212743328,0.20998698862631923,0.07658723194425801,0.006447710631456882,0.8042649476182708,1.3174494756777846,1.8823107633783493
2.8057429518694663,0.21792766453293105,0.07754076842822055,0.007183929343021786,0.8060469938019095,1.3161948385019349,1.8832593639128312
2.722113087011215,0.22595187738439668,0.0785459419445236,0.008080884736872698,0.8078913076720637,1.315033436005049,1.8844157871620046
2.640975950252502,0.23405314664755966,0.07962704544767102,0.009169953194191767,0.8098040074494701,1.3139829503340172,1.885820861212859
2.56225724166006,0.24222486565374549,0.08081191434320549,0.010485293697124507,0.8117917063713016,1.3130624802203263,1.8875191419092041
2.4858848759344934,0.2504603580563114,0.08213173731995209,0.012063434670063256,0.8138614002489288,1.3122923571244498,1.8895583986949736
2.4117889163994066,0.2587529452853969,0.08362063376413323,0.013942769682822855,0.8160203381519462,1.3116939113645705,1.8919889727335935
2.3399015109581063,0.26709602111004455,0.0853149819709626,0.01616298806644519,0.818275882651637,1.3112892001915357,1.8948630434640696
2.270156829959207,0.2754831305673632,0.08725250971772107,0.018764470977995423,0.8206353677932648,1.3111007110210993,1.898233841601833
2.2024910059142684,0.283908049895966,0.0894711918985363,0.021787685018992684,0.823105962670494,1.3111510546722487,1.9021548501036691
2.1368420750122423,0.29236486396886563,0.09200803351436895,0.025272604165908475,0.8256945475044157,1.3114626635749096,1.9066790336560935
2.0731499203771824,0.30084803814905126,0.09489784274780097,0.029258186872071247,0.8284076078503115,1.312057508833684,1.9118581325401725
2.011356217017251,0.30935247971996405,0.09817211000060883,0.033781929052862196,0.8312511485063194,1.3129568473771405,1.9177420512685583
1.951404378414617,0.3178735910486886,0.10185810143726451,0.038879507452974034,0.8342306330909539,1.3141810087769867,1.9243783581635003
1.8932395047073238,0.3264073069728783,0.10597824610520551,0.04458451941128557,0.8373509432972872,1.3157492261009174,1.9318119116512351
1.8368083324156919,0.3349501201853649,0.11054985579644724,0.050928319553765186,0.8406163607170456,1.3176795136697441,1.9400846109302297
1.7820591856672048,0.34349909315227656,0.11558517061562269,0.057939947610561184,0.8440305673146846,1.3199885906491051,1.9492352666276065
1.7289419288752192,0.352051858230236,0.12109168467028876,0.06564613764343656,0.8475966625016825,1.3226918475288807,1.9592995794092536
1.6774079208281676,0.36060660557657837,0.1270726802573459,0.07407139571614507,0.8513171914710884,1.3258033488905572,1.9703102104905907
1.6274099701472073,0.3691620656430748,0.13352789116287272,0.08323813320321448,0.8551941875334257,1.3293358700829256,1.9822969271717652
1.578902292071531,0.37771748179828013,0.1404542174074542,0.09316684043420173,0.8592292179352545,1.3333009564445937,1.9952868046397105
1.5318404665317589,0.3862725799941307,0.14784643039644396,0.10387628859365934,0.8634234363341391,1.3377090025086917,2.0093044678421226
1.486181397473029,0.3948275333145985,0.15569782303209787,0.11538374721202231,0.8677776347272607,1.342569341748258,2.024372356550664
1.4418832733905278,0.40338292783378116,0.1640007797806614,0.12770520874360924,0.8722922992129409,1.3478903473928896,2.0405110047281827
1.398905529041325,0.4119397246907922,0.17274725309585667,0.14085561048352815,0.8769676598685423,1.353679533264279,2.0577393191127533
1.3572088082974532,0.4204992241593336,0.18192914720682504,0.1548490491427868,0.8818037398570817,1.3599436569929302,2.0760748532489792
1.3167549281062128,0.42906302853659806,0.1915386145016434,0.16969898247017062,0.8868003977453913,1.3666888182322279,2.095534067019071
1.2775068435246986,0.4376330096484745,0.20156827712041328,0.18541841704317194,0.8919573699751205,1.3739205579427054,2.1161325755419296
1.239428613796535,0.44621127517811215,0.21201138340090542,0.2020200784270254,0.8972743047332801,1.381643948657192,2.1378853765455457
1.202485369439745,0.45480013683310105,0.22286191208552647,0.21951656396775487,0.902750790956059,1.389863678391301,2.1608070578526517
1.166643280315627,0.46340208360087165,0.23411463678089683,0.23792047992039866,0.9083863873880988,1.398584133575358,2.1849119918184847
1.1318695246493875,0.47201975447875927,0.2457651576007086,0.25724456111585176,0.9141806435838915,1.4078094708816167,2.210214505953627
1.0981322589741653,0.48065591329142154,0.2578099089355759,0.2775017751435699,0.920133116828604,1.4175436815917926,2.236729034102985
1.0654005889709293,0.4893134289506105,0.270246151617405,0.29870541424802344,0.9262433906968472,1.4277906555407027,2.2644702584041463
1.0336445411775372,0.4979952551532711,0.2830719515231667,0.32086917322995145,0.9325110864619898,1.4385542331087042,2.293453228717021
1.0028350355410531,0.5067044119654414,0.2962861496710702,0.3440072158025913,0.9389358714601153,1.4498382497673608,2.3236934655095243
0.9729438587881941,0.5154439734816434,0.30988832938117633,0.36813423363775777,0.9455174717962962,1.461646583285852,2.3552070613052525
0.9439436385895095,0.5242170520325115,0.32387877730904113,0.3932654934901567,0.9522556745645203,1.4739831832560157,2.3880107536276807
0.915807818493642,0.5330267902384628,0.3382584466896201,0.41941688100778085,0.9591503383978859,1.4868521088168052,2.4221220060755693
0.8885106336087182,0.5418763491992834,0.35302891703884254,0.44660493456198613,0.9662013936960773,1.5002575486058443,2.4575590613967275
0.8620270870085897,0.5507689042734719,0.3681923583082624,0.47484687834304967,0.9734088518972559,1.5142038504985087,2.494341006991066
0.8363329268423325,0.5597076370767209,0.3837514929647608,0.504160647337157,0.9807728052781082,1.5286955346829605,2.5324878143170073
0.8114046241260316,0.5686957328443809,0.3997095622981421,0.5345649120056563,0.9882934329429904,1.5437373128569147,2.5720203865052733
0.7872193511965184,0.5777363788752896,0.4160702945838399,0.5660791004370607,0.9959710062337936,1.5593341040669424,2.6129606008680044
0.7637549608073347,0.5868327614311839,0.4328378733420645,0.5987234160288538,1.0038058892445036,1.5754910406415648,2.6553313355357715
0.7409899658477723,0.5959880667825135,0.450016909752976,0.6325188564202714,1.011798544503389,1.5922134795893403,2.6991565050452007
0.7189035196664213,0.6052054830620638,0.4676124170525948,0.6674872315432179,1.0199495384089965,1.6095070117028016,2.744461093275106
0.6974753969812104,0.6144882000624022,0.4856297847251458,0.7036511780767067,1.028259541591733,1.6273774610162928,2.7912711710079643
0.6766859753584532,0.6238394129152456,0.5040747568823635,0.741034176875154,1.0367293348276707,1.6458308913821762,2.8396139265338984
0.6565162172439419,0.6332623245397271,0.5229534110945522,0.7796605686538214,1.0453598118152791,1.6648736071257724,2.8895176875838064
0.6369476525296373,0.6427601487206313,0.5422721390582955,0.8195555702357472,1.0541519822905159,1.6845121535442553,2.941011944323442
0.617962361639985,0.6523361133289493,0.5620376287917604,0.8607452913136578,1.0631069748535957,1.704753316732713,2.994127372633102
0.5995429591223723,0.6619934635606066,0.5822568483387612,0.903256752052786,1.0722260395028629,1.72560412320323,3.0488958585172474
0.5816725777267022,0.6717354650914307,0.6029370310032451,0.9471179018958303,1.081510549892951,1.7470718398036846,3.1053505245496997
0.5643348529594985,0.6815654070705394,0.6240856621713853,0.9923576399630702,1.0909620053515985,1.7691639744511254,3.1635257592730412
0.5475139080984027,0.6914866048987158,0.645710467801594,1.0390058374575457,1.1005820326982731,1.7918882781566472,3.2234572504134484
0.5311943396533411,0.701502402761227,0.6678194046661873,1.087093362475387,1.1103723879051102,1.815252748723873,3.285182022625245
0.5153612032610435,0.7116161759042181,0.6904206524065908,1.1366521075746248,1.1203349576250021,1.8392656363472768,3.3487384802313267
0.5,0.7218313328839068,0.713522607617023,1.1877150207532845,1.1304717609896666,1.8639354517969733,3.414166456450488
