vals,w,v,tau,hat_w,hat_v,hat_tau,rs_loo_hc
10.000000000000002,3.8199384923171195e-11,5.415654780554232e-07,1.857861578293006e-12,0.7652006866553174,2.7277066026457613,7.443245254507742,0.5
9.770099572992253,9.905249921276609e-11,8.986594234884798e-07,4.817507692842158e-12,0.7652006937890393,2.727706608587341,7.443245260199458,0.5
9.545484566618343,2.463803891907351e-10,1.4602383428124935e-06,1.198293244819021e-11,0.765200702124043,2.7277066064667053,7.443245260144315,0.5
9.3260334688322,5.889736422176312e-10,2.325785105302307e-06,2.8645263832641412e-11,0.7652007145404418,2.727706601583662,7.443245259646288,0.5
9.111627561154894,1.35554737692977e-09,3.634320938494342e-06,6.592826658081209e-11,0.7652007336702613,2.7277065955307833,7.443245262144503,0.5
8.90215085445039,3.008896245128566e-09,5.5763527503677466e-06,1.4634037130711174e-10,0.7652007614971019,2.7277065834138607,7.443245261546386,0.5
8.697490026177835,6.451846533533529e-09,8.408178563727725e-06,3.137913341137503e-10,0.7652008021225579,2.727706564658713,7.4432452613725975,0.5
8.497534359086444,1.3385156421459961e-08,1.2468587724054879e-05,6.509990192737394e-10,0.7652008615537951,2.727706539656113,7.443245265261437,0.5
8.302175681319746,2.6907469385465733e-08,1.819776832657697e-05,1.3086686266789998e-09,0.7652009450117061,2.7277064976981142,7.443245267228275,0.5
8.111308307896874,5.2486807598401097e-08,2.6158446495805788e-05,2.552742026463819e-09,0.7652010623911911,2.7277064355956577,7.443245272420518,0.5
7.924828983539174,9.948214723953365e-08,3.7058852324073505e-05,4.8384006494506325e-09,0.7652012267004955,2.727706347830586,7.4432452859452205,0.5
7.742636826811271,1.8345126557757237e-07,5.1777117167851196e-05,8.922309066053685e-09,0.7652014514247498,2.7277062123707503,7.443245305584986,0.5
7.564633275546291,3.295445753284619e-07,7.138657060337447e-05,1.6027675652352862e-08,0.7652017593285065,2.7277060175132517,7.443245344012542,0.5
7.39072203352578,5.77348846906326e-07,9.718122859194022e-05,2.807982836988533e-08,0.7652021742891462,2.7277057234788145,7.443245404665993,0.5
7.220809018385465,9.876035377184202e-07,0.00013070076903334097,4.8032862894746776e-08,0.7652027321242724,2.7277052922130265,7.443245506524771,0.5
7.054802310718644,1.651256045239818e-06,0.00017375412643420707,8.031003999779858e-08,0.7652034784566261,2.727704665948462,7.443245674507168,0.5
6.892612104349699,2.7013422245727147e-06,0.000228440845328915,1.3138158063033486e-07,0.765204468111282,2.727703748221741,7.44324593712276,0.5
6.734150657750822,4.32816667256247e-06,0.0002971693774682722,2.1050292391256392e-07,0.7652057773384031,2.7277024275794854,7.443246347087186,0.5
6.579332246575682,6.79819952249397e-06,0.00038267133668076975,3.3063370426664315e-07,0.7652074974763143,2.727700528846397,7.4432469665390695,0.5
6.428073117284323,1.0477011969402643e-05,0.00048801109150620143,5.095530800571347e-07,0.7652097507209916,2.7276978401807837,7.443247892079093,0.5
6.280291441834254,1.5856413804495544e-05,0.0006165897089303606,7.711793216889721e-07,0.7652126846850437,2.7276940577984714,7.443249242676285,0.5
6.135907273413174,2.358577955810757e-05,0.0007721429285479975,1.1470929042583888e-06,0.7652164902731451,2.7276888106192434,7.443251185976317,0.5
5.994842503189412,3.450729543042454e-05,0.0009587322345531681,1.678249998597251e-06,0.7652213974071251,2.7276815999836708,7.4432539292885505,0.5
5.857020818056667,4.969464407339393e-05,0.001180729138310653,2.416862629679978e-06,0.7652276944150826,2.7276718215044937,7.4432577464826135,0.5
5.722367659350217,7.049432988324051e-05,0.0014427918101385334,3.4284065508498285e-06,0.7652357248541372,2.727658702573965,7.443262971947053,0.5
5.590810182512224,9.856867731401712e-05,0.0017498347261322548,4.793709268257797e-06,0.7652459073876272,2.7276413220653266,7.443270026902302,0.5
5.462277217684343,0.00013593920948172343,0.0021069905459971954,6.611055019918686e-06,0.7652587332658911,2.727618549618679,7.443279415688238,0.5
5.33669923120631,0.0001850290913900905,0.0025195655327256324,8.99824176201901e-06,0.765274785304437,2.727589064788357,7.443291749892934,0.5
5.214008287999686,0.00024870303052002674,0.0029929878745503353,1.2094511437489442e-05,0.7652947365774865,2.727551307444647,7.4433077472900635,0.5226943009657716
5.09413801481638,0.00033030317498231856,0.0035327504738698317,1.6062281147942295e-05,0.765319360459616,2.72750347534197,7.4433282449321645,0.5249128778756811
4.977023564332112,0.0004336795246220319,0.004144348934620756,2.108860158156087e-05,0.7653495411226929,2.727443531286236,7.443354211710072,0.5272624484475725
4.862601580065355,0.0005632133251224742,0.004833214852020418,2.7386267276552434e-05,0.7653862690548506,2.7273691665999786,7.443386744737339,0.5297216303689325
4.750810162102798,0.000723832423086416,0.005604646835452324,3.5194526544331325e-05,0.7654306473457941,2.727277814358575,7.443427077402733,0.5324034907165157
4.641588833612779,0.0009210176287335098,0.0064637402572695676,4.4779342606233896e-05,0.7654838971062807,2.727166671420056,7.443476584558436,0.5351665606550363
4.534878508128582,0.0011607991149519988,0.007415315764058587,5.6433157955168524e-05,0.7655473473261767,2.7270326782932286,7.4435367733393,0.5380702354970169
4.430621457583882,0.001449742861301304,0.00846384988171938,7.047415867087457e-05,0.7656224355853335,2.7268725505224785,7.443609283376015,0.5411418370862199
4.328761281083059,0.0017949270405165185,0.009613408500539437,8.724503178279838e-05,0.7657107069030527,2.726682815717596,7.443695882159263,0.5443418405419483
4.229242874389499,0.0022039081081659017,0.01086758291737599,0.00010711120481917209,0.7658137983173644,2.726459813245469,7.4437984508756125,0.547582772767576
4.132012400115338,0.002684677873121732,0.012229432441290574,0.00013045862470615908,0.7659334348956689,2.72619974466533,7.44391897583047,0.5509731651978038
4.037017258596555,0.0032456117085453485,0.013701432383647223,0.00015769108612495445,0.7660714163833543,2.72589870169379,7.44405953382622,0.5544995188979714
3.9442060594376556,0.0038954096099275697,0.015285430506443619,0.00018922718822953762,0.7662296101278008,2.725552723032373,7.444222275490928,0.5580268445214341
3.85352859371053,0.0046430300316329205,0.016982609345088908,0.00022549692407892855,0.7664099302524925,2.725157812255799,7.444409407998236,0.56166572534096
3.7649358067924688,0.005497619195354951,0.018793458893281777,0.0002669380271597431,0.7666143273657355,2.7247099954795515,7.444623177078267,0.5653811721179002
3.678379771828634,0.006468436720312376,0.020717758288391355,0.0003139921209604192,0.7668447758442524,2.7242053724661126,7.444865842188802,0.5691241567215544
3.593813663804628,0.007564777945911143,0.02275456474356075,0.0003671006997163012,0.7671032536297852,2.7236401466193896,7.445139662153356,0.5728902515013563
3.5111917342151315,0.008795895944679258,0.024902213318583534,0.00042670107953469446,0.7673917297410453,2.723010678140591,7.445446872546034,0.5766987869317372
3.430469286314919,0.01017092379390152,0.027158325430392587,0.0004932223565149712,0.767712149784979,2.722313527150078,7.445789657447471,0.5805531107485039
3.351602650938843,0.011698797460062018,0.02951982441394973,0.000567081401535278,0.7680664188478995,2.7215454888765573,7.446170140834404,0.584421041491409
3.2745491628777286,0.013388182037396211,0.031982960536229635,0.0006486790190659829,0.7684563888486836,2.7207036352208505,7.446590362699264,0.5883565748991135
3.199267137797384,0.015247401467685493,0.03454334308983692,0.0007383962883717541,0.7688838445252189,2.7197853450530474,7.447052251592812,0.5922518274857773
3.1257158496882362,0.017284372124521438,0.03719597831032053,0.0008365911171115852,0.7693504910016841,2.7187883382012714,7.447557623228475,0.5961414645156223
3.053855508833416,0.019506542194815603,0.03993531407608212,0.0009435950974597286,0.7698579426174852,2.717710701488644,7.4481081585810465,0.6000063714971642
2.98364724028334,0.021920836629700208,0.0427552892480061,0.001059710666371158,0.77040771109529,2.7165509043135074,7.448705380807627,0.6038406088991489
2.915053062825177,0.02453360820872971,0.04564938703699507,0.0011852086025681957,0.7710011983628761,2.7153078264983965,7.449350661055057,0.6076496842869193
2.8480358684358023,0.027350595394371506,0.04861069185376131,0.0013203258938979164,0.7716396873520877,2.7139807655846213,7.450045198079625,0.6114818698508359
2.7825594022071254,0.030376886941183893,0.051631948503877576,0.0014652639807154232,0.7723243363037443,2.7125694504467672,7.450790017142644,0.6152179429999425
2.718588242732941,0.03361689314435257,0.054705622613541165,0.0016201873744939499,0.7730561707473895,2.711074035544414,7.451585951443366,0.6189268022967663
2.656087782946687,0.03707432448874208,0.0578239624075591,0.0017852226855281175,0.7738360831446657,2.7094951177553317,7.452433658671959,0.622570542732771
2.595024211399736,0.040752176579445014,0.06097905982880644,0.0019604580162557537,0.7746648275513918,2.707833723563383,7.453333607542058,0.6261452766147724
2.5353644939701123,0.04465272187895326,0.06416291116974715,0.002145942744267789,0.7755430184738569,2.7060913051795827,7.454286081953189,0.6296707663831196
2.4770763559917115,0.04877750787562283,0.06736747636950317,0.0023416876850746453,0.7764711311872177,2.7042697343807296,7.455291187740104,0.6331273575889431
2.420128264794382,0.05312736038397532,0.07058473551482002,0.002547665598589465,0.7774494986279883,2.7023712762022765,7.456348843245864,0.6364870804396154
2.364489412645408,0.05770239404012099,0.0738067442886808,0.0027638121473577216,0.7784783181147437,2.7003985934852226,7.457458807239211,0.6398554426084716
2.3101297000831598,0.0625020263639491,0.07702568495588519,0.00299002722945783,0.7795576503632125,2.6983547161524104,7.458620674241187,0.6431230487289967
2.25701971963392,0.06752499724850074,0.08023391470300036,0.0032261768713527164,0.780687423637396,2.696243024704675,7.459833889411076,0.646306745471648
2.205130739903046,0.07276939246273899,0.0834240101996893,0.003472095828977701,0.7818674379343054,2.694067229139294,7.4610977635615505,0.6493780230864205
2.154434690031884,0.07823267078661243,0.0865888083410646,0.0037275912202503095,0.7830973700364353,2.6918313470928963,7.462411493229924,0.6523906613290117
2.104904144512021,0.08391169452011384,0.08972144330244931,0.003992447715789588,0.7843767804863235,2.689539685659202,7.463774192110822,0.6553379647278267
2.0565123083486516,0.08980276104212767,0.0928153787493721,0.004266435022139623,0.7857051166217455,2.687196806309082,7.465184916031859,0.6582078382374095
2.0092330025650473,0.09590163916298376,0.09586443844283613,0.004549318982398028,0.7870817267827928,2.684807528150218,7.4666427417090295,0.6609696122782027
1.9630406500402713,0.10220360390167287,0.09886283161209873,0.004840877740760175,0.7885058662758719,2.6823769001193702,7.468146836195002,0.6636427253161186
1.9179102616724886,0.10870347329578986,0.10180517673056388,0.005140925353261047,0.7899767103007441,2.6799101976068807,7.469696581716374,0.6662302011125313
1.8738174228603843,0.11539564486300075,0.1046865234068782,0.005449345682492779,0.7914933686315878,2.677412925471845,7.471291749891287,0.6687089294912872
1.8307382802953682,0.12227413126979354,0.1075023738334053,0.005766140201895841,0.7930549038363908,2.6748908346432057,7.472932747633058,0.6711467291001453
1.788649529057435,0.1293325944633227,0.11024870542684903,0.006091494038502029,0.794660354020297,2.672349956690579,7.474620957400624,0.6734803169333903
1.747528400007684,0.13656437752001357,0.11292199673710573,0.006425865214021998,0.7963087612265408,2.6697966613523283,7.476359197918949,0.6757198441898987
1.7073526474706908,0.14396253349402963,0.11551925917599783,0.006770102495895352,0.7979992067323438,2.66723774245344,7.478152334107449,0.677934209432193
1.668100537200059,0.15151985062345255,0.11803807760133675,0.00712559743008904,0.7997308545104758,2.6646805378276524,7.480008066141274,0.6800509503790019
1.6297508346206444,0.15922887338554392,0.1204766632450142,0.007494475875615119,0.8015030040623463,2.662133088664606,7.4819379267046155,0.6820845378882735
1.5922827933410924,0.16708191915150505,0.1228339228896502,0.007879833581206079,0.803315154028126,2.659604344969795,7.483958514491228,0.6840555983321837
1.555676143930472,0.17507109003482402,0.12510954804091518,0.008286018895978697,0.8051670748159245,2.6571044086812807,7.48609296709455,0.6859287105061683
1.5199110829529336,0.18318828136668452,0.12730412896600538,0.008718963648714254,0.8070588966766845,2.6546448461049046,7.4883727201961445,0.6877213690295598
1.484968262254465,0.19142518594268804,0.12941929604268268,0.009186560181541717,0.8089912040401275,2.652239027545604,7.4908394939449305,0.689431306081327
1.45082877849594,0.1997732966423213,0.13145789214659656,0.009699079033046162,0.8109651413094625,2.6499025203334066,7.493547520025902,0.69109199901944
1.4174741629268053,0.20822390859925607,0.13342417701624465,0.010269617385740573,0.8129825248320717,2.6476535135656025,7.496565944834071,0.6926780698467315
1.3848863713938733,0.2167681232641303,0.1353240628546676,0.010914563700421698,0.8150459577310536,2.6455132626633526,7.499981336716545,0.6942040974126359
1.353047774579807,0.2253968569819622,0.1371653774267428,0.011654059114120353,0.8171589424969015,2.643506534454846,7.5039001951579385,0.6956410320097572
1.3219411484660295,0.23410085692927032,0.13895814717406654,0.012512431678729589,0.8193259849388824,2.6416620282598675,7.508451333075739,0.6969710550443392
1.291549665014884,0.24287072723943476,0.1407148884096262,0.013518575942237892,0.8215526819582188,2.640012743803866,7.513787980480073,0.6982466503743552
1.2618568830660204,0.2516969678195051,0.14245088969373815,0.014706248395973974,0.8238457848126541,2.6385962634409443,7.520089442365893,0.6994545350480978
1.232846739442066,0.2605700276796217,0.14418446344946034,0.01611424961590513,0.8262132293045497,2.637454914925664,7.527562139919404,0.7005587479036182
1.2045035402587825,0.26948037355045,0.1459371403737757,0.017786467098182993,0.8286641248524106,2.6366357826488915,7.536439875783375,0.7015860708272925
1.1768119524349985,0.2784185737094906,0.14773377721270028,0.019771759212789994,0.8312086964129466,2.6361905413733857,7.546983194387682,0.702542443350375
1.1497569953977358,0.28737539296646436,0.14960254708365478,0.022123670063500356,0.8338581733408179,2.6361750931619055,7.5594777577239105,0.7034295933364995
1.1233240329780276,0.29634189453421983,0.15157478403107447,0.02489997670820876,0.8366246227211271,2.636648992368621,7.574231709910984,0.7041990326123498
1.0974987654930561,0.3053095590591048,0.15368466536915593,0.028162086507912434,0.8395207493709963,2.63767471199792,7.591572127855471,0.7049102644819293
1.072267222010323,0.3142703801663679,0.15596871238378818,0.03197430999120646,0.8425596330213879,2.639316717804527,7.611840670644276,0.7055378029565947
1.047615752789665,0.3232169660588548,0.15846512227806092,0.03640305132943775,0.845754449076749,2.6416404201252504,7.635388637937402,0.7060475227295104
1.0235310218990263,0.3321426266603955,0.16121295237909047,0.04151596591159279,0.8491181796565346,2.644711087313822,7.662571765743117,0.7064793806472843
1.0,0.34104143654811403,0.16425119444284333,0.047381133734084264,0.8526633226435671,2.6485927408708534,7.6937450206167295,0.7067965516161495
